# Force         
# CofR          : (2.50000000e-01 0.00000000e+00 0.00000000e+00)
#
# Time          	total_x total_y total_z	pressure_x pressure_y pressure_z	viscous_x viscous_y viscous_z
2e-05            1.65647449e+02 1.82625852e-18 3.09899961e+02 1.53724503e+02 1.77730579e-18 3.09550707e+02 1.19229454e+01 4.89527285e-20 3.49254147e-01
4e-05            1.99360444e+02 2.23430559e-18 2.81959579e+02 1.87619362e+02 2.20357985e-18 2.81764709e+02 1.17410821e+01 3.07257400e-20 1.94870016e-01
6e-05            1.99479672e+02 1.98313856e-18 2.67449862e+02 1.88048616e+02 1.97405129e-18 2.67305600e+02 1.14310554e+01 9.08727068e-21 1.44261816e-01
8e-05            1.93392996e+02 1.74803905e-18 2.58507771e+02 1.82210965e+02 1.73282392e-18 2.58378004e+02 1.11820309e+01 1.52151277e-20 1.29767455e-01
0.0001           1.87999783e+02 1.53670840e-18 2.58999578e+02 1.77081854e+02 1.52178913e-18 2.58883598e+02 1.09179290e+01 1.49192701e-20 1.15979742e-01
0.00012          1.83188340e+02 1.35717247e-18 2.57119538e+02 1.72507781e+02 1.34131842e-18 2.57014422e+02 1.06805589e+01 1.58540527e-20 1.05116270e-01
0.00014          1.78570681e+02 1.22223769e-18 2.55805926e+02 1.68127851e+02 1.20697498e-18 2.55709114e+02 1.04428296e+01 1.52627016e-20 9.68128718e-02
0.00016          1.73602031e+02 1.10573309e-18 2.54225420e+02 1.63388701e+02 1.09073535e-18 2.54134463e+02 1.02133302e+01 1.49977435e-20 9.09571930e-02
0.00018          1.68262403e+02 1.00860806e-18 2.52746377e+02 1.58273112e+02 9.93406420e-19 2.52659850e+02 9.98929126e+00 1.52016361e-20 8.65267130e-02
0.0002           1.63070996e+02 9.15994845e-19 2.51294723e+02 1.53298877e+02 9.00418081e-19 2.51211837e+02 9.77211891e+00 1.55767637e-20 8.28854977e-02
0.00022          1.58240238e+02 8.16557983e-19 2.49976149e+02 1.48677996e+02 8.00476671e-19 2.49896426e+02 9.56224181e+00 1.60813123e-20 7.97227808e-02
0.00024          1.53714748e+02 7.19215295e-19 2.48572275e+02 1.44357125e+02 7.02941899e-19 2.48495216e+02 9.35762250e+00 1.62733957e-20 7.70587253e-02
0.00026          1.49346939e+02 6.23718054e-19 2.47190698e+02 1.40188101e+02 6.07899880e-19 2.47115933e+02 9.15883832e+00 1.58181735e-20 7.47655694e-02
0.00028          1.45233183e+02 5.26573939e-19 2.45744740e+02 1.36268111e+02 5.10761012e-19 2.45671953e+02 8.96507201e+00 1.58129262e-20 7.27862459e-02
0.0003           1.41690553e+02 4.36433756e-19 2.44321083e+02 1.32913645e+02 4.20078800e-19 2.44250028e+02 8.77690779e+00 1.63549559e-20 7.10549102e-02
0.00032          1.38367689e+02 3.31024238e-19 2.42885907e+02 1.29772929e+02 3.15079734e-19 2.42816282e+02 8.59475973e+00 1.59445040e-20 6.96247392e-02
0.00034          1.35324232e+02 2.42758266e-19 2.41518192e+02 1.26906465e+02 2.27018666e-19 2.41449704e+02 8.41776656e+00 1.57396001e-20 6.84878461e-02
0.00036          1.32466345e+02 1.54384287e-19 2.40241436e+02 1.24217566e+02 1.38730634e-19 2.40173911e+02 8.24877963e+00 1.56536536e-20 6.75247651e-02
0.00038          1.29654991e+02 6.36298202e-20 2.39002233e+02 1.21566527e+02 4.80780547e-20 2.38935226e+02 8.08846468e+00 1.55517654e-20 6.70067869e-02
0.0004           1.26932270e+02 -1.58532902e-20 2.37726622e+02 1.18993235e+02 -3.06671718e-20 2.37659829e+02 7.93903441e+00 1.48138816e-20 6.67930537e-02
0.00042          1.24319618e+02 -9.39994782e-20 2.36450874e+02 1.16514763e+02 -1.08496074e-19 2.36384140e+02 7.80485463e+00 1.44965956e-20 6.67337950e-02
0.00044          1.21806845e+02 -1.73709457e-19 2.35109611e+02 1.14118394e+02 -1.87757021e-19 2.35042704e+02 7.68845096e+00 1.40475633e-20 6.69071914e-02
0.00046          1.19414852e+02 -2.53191532e-19 2.33730328e+02 1.11821477e+02 -2.66232955e-19 2.33663037e+02 7.59337417e+00 1.30414225e-20 6.72914492e-02
0.00048          1.17161267e+02 -3.30052994e-19 2.32351492e+02 1.09639182e+02 -3.42619532e-19 2.32283724e+02 7.52208487e+00 1.25665386e-20 6.77674429e-02
0.0005           1.15048694e+02 -4.05334646e-19 2.31005195e+02 1.07573827e+02 -4.16275066e-19 2.30937142e+02 7.47486727e+00 1.09404199e-20 6.80525723e-02
0.00052          1.13068828e+02 -4.72816266e-19 2.29699042e+02 1.05620863e+02 -4.84879748e-19 2.29631165e+02 7.44796539e+00 1.20634814e-20 6.78768529e-02
0.00054          1.11208687e+02 -5.40434577e-19 2.28434824e+02 1.03773901e+02 -5.50863827e-19 2.28367619e+02 7.43478562e+00 1.04292495e-20 6.72051522e-02
0.00056          1.09458109e+02 -6.00910314e-19 2.27203411e+02 1.02029201e+02 -6.11690731e-19 2.27137075e+02 7.42890792e+00 1.07804165e-20 6.63352790e-02
0.00058          1.07805783e+02 -6.57203733e-19 2.25998363e+02 1.00379394e+02 -6.67989163e-19 2.25932858e+02 7.42638946e+00 1.07854293e-20 6.55044476e-02
0.0006           1.06238375e+02 -7.09373080e-19 2.24801137e+02 9.88128899e+01 -7.20213814e-19 2.24736349e+02 7.42548468e+00 1.08407336e-20 6.47879121e-02
0.00062          1.04738716e+02 -7.58375250e-19 2.23596073e+02 9.73132470e+01 -7.69161786e-19 2.23531890e+02 7.42546907e+00 1.07865358e-20 6.41830334e-02
0.00064          1.03288865e+02 -8.03368225e-19 2.22376408e+02 9.58629883e+01 -8.14185780e-19 2.22312746e+02 7.42587709e+00 1.08175548e-20 6.36624850e-02
0.00066          1.01882638e+02 -8.48632898e-19 2.21138025e+02 9.44563808e+01 -8.59447747e-19 2.21074852e+02 7.42625696e+00 1.08148492e-20 6.31726697e-02
0.00068          1.00510028e+02 -8.91766582e-19 2.19884108e+02 9.30836781e+01 -9.02598765e-19 2.19821397e+02 7.42634972e+00 1.08321828e-20 6.27107934e-02
0.0007           9.91726326e+01 -9.33031429e-19 2.18628704e+02 9.17467248e+01 -9.43855496e-19 2.18566431e+02 7.42590784e+00 1.08240667e-20 6.22733378e-02
0.00072          9.78730550e+01 -9.73075308e-19 2.17390432e+02 9.04482230e+01 -9.83043834e-19 2.17328565e+02 7.42483198e+00 9.96852533e-21 6.18672051e-02
0.00074          9.66162213e+01 -1.01454448e-18 2.16178428e+02 8.91931674e+01 -1.02430529e-18 2.16116957e+02 7.42305386e+00 9.76080992e-21 6.14713721e-02
0.00076          9.54004873e+01 -1.05743697e-18 2.15010750e+02 8.79798308e+01 -1.06693292e-18 2.14949633e+02 7.42065658e+00 9.49594525e-21 6.11168144e-02
0.00078          9.42268402e+01 -1.10135359e-18 2.13908710e+02 8.68092199e+01 -1.11069390e-18 2.13847896e+02 7.41762033e+00 9.34031077e-21 6.08147890e-02
0.0008           9.30968619e+01 -1.14913018e-18 2.12873640e+02 8.56828884e+01 -1.15827062e-18 2.12813114e+02 7.41397354e+00 9.14044099e-21 6.05263325e-02
0.00082          9.20096937e+01 -1.20056044e-18 2.11905654e+02 8.45998597e+01 -1.20953718e-18 2.11845392e+02 7.40983396e+00 8.97674050e-21 6.02619633e-02
0.00084          9.09677473e+01 -1.25202667e-18 2.11004972e+02 8.35625185e+01 -1.26320044e-18 2.10944938e+02 7.40522884e+00 1.11737686e-20 6.00340858e-02
0.00086          8.99710575e+01 -1.31111209e-18 2.10158430e+02 8.25708942e+01 -1.32048404e-18 2.10098611e+02 7.40016333e+00 9.37194342e-21 5.98193270e-02
0.00088          8.90184497e+01 -1.37145048e-18 2.09350413e+02 8.16236814e+01 -1.38072989e-18 2.09290774e+02 7.39476830e+00 9.27941180e-21 5.96387176e-02
0.0009           8.81089967e+01 -1.43328880e-18 2.08573069e+02 8.07198971e+01 -1.44278872e-18 2.08513566e+02 7.38909961e+00 9.49992304e-21 5.95028108e-02
0.00092          8.72360595e+01 -1.50005281e-18 2.07803870e+02 7.98528903e+01 -1.50839343e-18 2.07744489e+02 7.38316917e+00 8.34062358e-21 5.93808628e-02
0.00094          8.63946616e+01 -1.56771969e-18 2.07028928e+02 7.90175882e+01 -1.57636512e-18 2.06969630e+02 7.37707336e+00 8.64542856e-21 5.92980042e-02
0.00096          8.55811972e+01 -1.63737335e-18 2.06249033e+02 7.82103501e+01 -1.64579916e-18 2.06189769e+02 7.37084718e+00 8.42581339e-21 5.92639611e-02
0.00098          8.47930774e+01 -1.70729690e-18 2.05464750e+02 7.74285344e+01 -1.71554471e-18 2.05405476e+02 7.36454305e+00 8.24780502e-21 5.92739486e-02
0.001            8.40297166e+01 -1.77745926e-18 2.04679178e+02 7.66715161e+01 -1.78549965e-18 2.04619851e+02 7.35820051e+00 8.04038858e-21 5.93273564e-02
0.00102          8.32925823e+01 -1.84818679e-18 2.03900994e+02 7.59407262e+01 -1.85542012e-18 2.03841571e+02 7.35185608e+00 7.23333406e-21 5.94229820e-02
0.00104          8.25840856e+01 -1.91814710e-18 2.03142651e+02 7.52385616e+01 -1.92520072e-18 2.03083094e+02 7.34552401e+00 7.05361475e-21 5.95571012e-02
0.00106          8.19061649e+01 -1.98856826e-18 2.02412339e+02 7.45669578e+01 -1.99504789e-18 2.02352617e+02 7.33920715e+00 6.47963077e-21 5.97224633e-02
0.00108          8.12592755e+01 -2.05875683e-18 2.01716951e+02 7.39263841e+01 -2.06506257e-18 2.01657037e+02 7.33289142e+00 6.30573281e-21 5.99145934e-02
0.0011           8.06422068e+01 -2.12930510e-18 2.01061162e+02 7.33156467e+01 -2.13533833e-18 2.01001033e+02 7.32656013e+00 6.03322774e-21 6.01283270e-02
0.00112          8.00516890e+01 -2.19974962e-18 2.00448700e+02 7.27314914e+01 -2.20629354e-18 2.00388343e+02 7.32019760e+00 6.54392531e-21 6.03565286e-02
0.00114          7.94828544e+01 -2.27245659e-18 1.99879573e+02 7.21690712e+01 -2.27811228e-18 1.99818981e+02 7.31378323e+00 5.65569612e-21 6.05920080e-02
0.00116          7.89307319e+01 -2.34505321e-18 1.99351899e+02 7.16234484e+01 -2.35053344e-18 1.99291070e+02 7.30728353e+00 5.48023505e-21 6.08284280e-02
0.00118          7.83916467e+01 -2.41807645e-18 1.98863125e+02 7.10909898e+01 -2.42346076e-18 1.98802062e+02 7.30065690e+00 5.38430902e-21 6.10637562e-02
0.0012           7.78642377e+01 -2.49123420e-18 1.98408940e+02 7.05703676e+01 -2.49685406e-18 1.98347642e+02 7.29387015e+00 5.61985793e-21 6.12982680e-02
0.00122          7.73492828e+01 -2.56594468e-18 1.97982356e+02 7.00623930e+01 -2.57104848e-18 1.97920824e+02 7.28688980e+00 5.10380597e-21 6.15318552e-02
0.00124          7.68494235e+01 -2.64036814e-18 1.97574746e+02 6.95697198e+01 -2.64610985e-18 1.97512981e+02 7.27970364e+00 5.74171199e-21 6.17650129e-02
0.00126          7.63677373e+01 -2.71699565e-18 1.97177805e+02 6.90954358e+01 -2.72210993e-18 1.97115802e+02 7.27230142e+00 5.11428678e-21 6.20029713e-02
0.00128          7.59070076e+01 -2.79417779e-18 1.96788640e+02 6.86423334e+01 -2.79878076e-18 1.96726389e+02 7.26467417e+00 4.60296951e-21 6.22506832e-02
0.0013           7.54690572e+01 -2.86926725e-18 1.96406894e+02 6.82122326e+01 -2.87525003e-18 1.96344382e+02 7.25682462e+00 5.98278729e-21 6.25119175e-02
0.00132          7.50542218e+01 -2.94404874e-18 1.96027830e+02 6.78054727e+01 -2.95088877e-18 1.95965048e+02 7.24874910e+00 6.84003307e-21 6.27827686e-02
0.00134          7.46617618e+01 -3.01805171e-18 1.95648875e+02 6.74213136e+01 -3.02554348e-18 1.95585810e+02 7.24044814e+00 7.49176315e-21 6.30652125e-02
0.00136          7.42894178e+01 -3.09163489e-18 1.95270841e+02 6.70574875e+01 -3.09875382e-18 1.95207479e+02 7.23193031e+00 7.11892363e-21 6.33612509e-02
0.00138          7.39339903e+01 -3.16312287e-18 1.94896105e+02 6.67107871e+01 -3.17065697e-18 1.94832436e+02 7.22320318e+00 7.53410294e-21 6.36694638e-02
0.0014           7.35919954e+01 -3.23254032e-18 1.94527417e+02 6.63777176e+01 -3.24018354e-18 1.94463429e+02 7.21427774e+00 7.64322076e-21 6.39882088e-02
0.00142          7.32600573e+01 -3.29937628e-18 1.94168257e+02 6.60548912e+01 -3.30703610e-18 1.94103942e+02 7.20516613e+00 7.65981232e-21 6.43147660e-02
0.00144          7.29355804e+01 -3.36328225e-18 1.93822869e+02 6.57396977e+01 -3.37152504e-18 1.93758223e+02 7.19588264e+00 8.24279701e-21 6.46460985e-02
0.00146          7.26134738e+01 -3.42813642e-18 1.93488809e+02 6.54269990e+01 -3.43586135e-18 1.93423839e+02 7.18647477e+00 7.72492361e-21 6.49701024e-02
0.00148          7.23045020e+01 -3.48609404e-18 1.93180354e+02 6.51276313e+01 -3.49450198e-18 1.93115051e+02 7.17687066e+00 8.40794440e-21 6.53032645e-02
0.0015           7.19978025e+01 -3.54000562e-18 1.92897488e+02 6.48306358e+01 -3.54873652e-18 1.92831853e+02 7.16716667e+00 8.73089201e-21 6.56348351e-02
0.00152          7.16933283e+01 -3.59139923e-18 1.92637974e+02 6.45358984e+01 -3.60105614e-18 1.92572018e+02 7.15742996e+00 9.65690701e-21 6.59564597e-02
0.00154          7.14042129e+01 -3.64072593e-18 1.92409994e+02 6.42566176e+01 -3.65013895e-18 1.92343709e+02 7.14759532e+00 9.41302562e-21 6.62854088e-02
0.00156          7.11185436e+01 -3.68507352e-18 1.92211681e+02 6.39807934e+01 -3.69485619e-18 1.92145077e+02 7.13775021e+00 9.78266710e-21 6.66038766e-02
0.00158          7.08483846e+01 -3.72732336e-18 1.92045735e+02 6.37205081e+01 -3.73736587e-18 1.91978799e+02 7.12787648e+00 1.00425104e-20 6.69360828e-02
0.0016           7.05829119e+01 -3.76414685e-18 1.91912156e+02 6.34648657e+01 -3.77473529e-18 1.91844900e+02 7.11804617e+00 1.05884471e-20 6.72565088e-02
0.00162          7.03329559e+01 -3.80181409e-18 1.91807208e+02 6.32247187e+01 -3.81192077e-18 1.91739615e+02 7.10823717e+00 1.01066833e-20 6.75928936e-02
0.00164          7.00860406e+01 -3.83279987e-18 1.91734705e+02 6.29875303e+01 -3.84445400e-18 1.91666787e+02 7.09851030e+00 1.16541321e-20 6.79178930e-02
0.00166          6.98521944e+01 -3.86682588e-18 1.91688816e+02 6.27633478e+01 -3.87780358e-18 1.91620556e+02 7.08884658e+00 1.09776921e-20 6.82597852e-02
0.00168          6.96180211e+01 -3.89526731e-18 1.91675048e+02 6.25387209e+01 -3.90653845e-18 1.91606459e+02 7.07930022e+00 1.12711479e-20 6.85886875e-02
0.0017           6.93913524e+01 -3.92331288e-18 1.91686515e+02 6.23214824e+01 -3.93483978e-18 1.91617590e+02 7.06987002e+00 1.15269008e-20 6.89249551e-02
0.00172          6.91664717e+01 -3.94970545e-18 1.91723310e+02 6.21059138e+01 -3.96129561e-18 1.91654047e+02 7.06055793e+00 1.15901592e-20 6.92626537e-02
0.00174          6.89416673e+01 -3.97584298e-18 1.91782826e+02 6.18902924e+01 -3.98620916e-18 1.91713225e+02 7.05137488e+00 1.03661822e-20 6.96011293e-02
0.00176          6.87153080e+01 -3.99918311e-18 1.91863332e+02 6.16729841e+01 -4.01011925e-18 1.91793394e+02 7.04232390e+00 1.09361411e-20 6.99383009e-02
0.00178          6.84863594e+01 -4.02239542e-18 1.91962399e+02 6.14529513e+01 -4.03333991e-18 1.91892126e+02 7.03340815e+00 1.09444828e-20 7.02737314e-02
0.0018           6.82537901e+01 -4.04515691e-18 1.92077528e+02 6.12291618e+01 -4.05625258e-18 1.92006921e+02 7.02462833e+00 1.10956746e-20 7.06066612e-02
0.00182          6.80169512e+01 -4.06695352e-18 1.92205928e+02 6.10009708e+01 -4.07927766e-18 1.92134991e+02 7.01598034e+00 1.23241486e-20 7.09372013e-02
0.00184          6.77753658e+01 -4.09030161e-18 1.92345244e+02 6.07679026e+01 -4.10237866e-18 1.92273978e+02 7.00746328e+00 1.20770489e-20 7.12653912e-02
0.00186          6.75300634e+01 -4.11399463e-18 1.92490854e+02 6.05309875e+01 -4.12567701e-18 1.92419256e+02 6.99907586e+00 1.16823812e-20 7.15979289e-02
0.00188          6.72784290e+01 -4.13542786e-18 1.92644356e+02 6.02876432e+01 -4.14943387e-18 1.92572429e+02 6.99078573e+00 1.40060088e-20 7.19263762e-02
0.0019           6.70227820e+01 -4.16026937e-18 1.92801732e+02 6.00401653e+01 -4.17381427e-18 1.92729480e+02 6.98261675e+00 1.35448931e-20 7.22524435e-02
0.00192          6.67644754e+01 -4.18486607e-18 1.92960409e+02 5.97899077e+01 -4.19869686e-18 1.92887830e+02 6.97456773e+00 1.38307917e-20 7.25788013e-02
0.00194          6.65031034e+01 -4.21025904e-18 1.93117302e+02 5.95364646e+01 -4.22435347e-18 1.93044395e+02 6.96663879e+00 1.40944298e-20 7.29067511e-02
0.00196          6.62418233e+01 -4.23669551e-18 1.93274835e+02 5.92830010e+01 -4.25065238e-18 1.93201598e+02 6.95882230e+00 1.39568773e-20 7.32375459e-02
0.00198          6.59824403e+01 -4.26343171e-18 1.93434313e+02 5.90313325e+01 -4.27761215e-18 1.93360742e+02 6.95110782e+00 1.41804429e-20 7.35712950e-02
0.002            6.57260675e+01 -4.29010794e-18 1.93595070e+02 5.87825673e+01 -4.30517065e-18 1.93521163e+02 6.94350023e+00 1.50627136e-20 7.39074292e-02
0.00202          6.54737533e+01 -4.31788409e-18 1.93757000e+02 5.85377487e+01 -4.33347849e-18 1.93682754e+02 6.93600466e+00 1.55943993e-20 7.42465863e-02
0.00204          6.52262302e+01 -4.34667097e-18 1.93920565e+02 5.82976119e+01 -4.36258250e-18 1.93845976e+02 6.92861838e+00 1.59115323e-20 7.45880689e-02
0.00206          6.49837166e+01 -4.37568520e-18 1.94086038e+02 5.80623747e+01 -4.39240653e-18 1.94011107e+02 6.92134192e+00 1.67213262e-20 7.49308821e-02
0.00208          6.47459916e+01 -4.40574044e-18 1.94253483e+02 5.78318169e+01 -4.42277334e-18 1.94178209e+02 6.91417472e+00 1.70329019e-20 7.52742381e-02
0.0021           6.45124059e+01 -4.43724148e-18 1.94423260e+02 5.76052894e+01 -4.45362462e-18 1.94347642e+02 6.90711646e+00 1.63831404e-20 7.56179409e-02
0.00212          6.42807436e+01 -4.46698529e-18 1.94598593e+02 5.73805749e+01 -4.48481754e-18 1.94522638e+02 6.90016873e+00 1.78322547e-20 7.59553386e-02
0.00214          6.40534070e+01 -4.49852990e-18 1.94774606e+02 5.71600634e+01 -4.51634963e-18 1.94698308e+02 6.89334360e+00 1.78197324e-20 7.62975451e-02
0.00216          6.38266552e+01 -4.52996004e-18 1.94954773e+02 5.69400400e+01 -4.54809570e-18 1.94878132e+02 6.88661518e+00 1.81356559e-20 7.66409525e-02
0.00218          6.35996010e+01 -4.56112866e-18 1.95139675e+02 5.67196164e+01 -4.57983744e-18 1.95062692e+02 6.87998460e+00 1.87087832e-20 7.69837088e-02
0.0022           6.33713820e+01 -4.59375567e-18 1.95329846e+02 5.64979352e+01 -4.61162081e-18 1.95252521e+02 6.87344681e+00 1.78651362e-20 7.73254428e-02
0.00222          6.31414738e+01 -4.62539650e-18 1.95525507e+02 5.62744752e+01 -4.64346876e-18 1.95447841e+02 6.86699866e+00 1.80722631e-20 7.76657166e-02
0.00224          6.29094099e+01 -4.65652835e-18 1.95726713e+02 5.60487731e+01 -4.67547642e-18 1.95648708e+02 6.86063681e+00 1.89480701e-20 7.80046524e-02
0.00226          6.26748646e+01 -4.68889869e-18 1.95933951e+02 5.58205072e+01 -4.70773147e-18 1.95855610e+02 6.85435738e+00 1.88327828e-20 7.83416698e-02
0.00228          6.24375894e+01 -4.72124578e-18 1.96147722e+02 5.55894332e+01 -4.74017358e-18 1.96069045e+02 6.84815627e+00 1.89278013e-20 7.86764235e-02
0.0023           6.21974470e+01 -4.75364525e-18 1.96368032e+02 5.53554169e+01 -4.77277590e-18 1.96289023e+02 6.84203013e+00 1.91306430e-20 7.90087251e-02
0.00232          6.19543150e+01 -4.78554031e-18 1.96594229e+02 5.51183408e+01 -4.80551332e-18 1.96514890e+02 6.83597418e+00 1.99730109e-20 7.93388229e-02
0.00234          6.17084030e+01 -4.81936653e-18 1.96825953e+02 5.48784173e+01 -4.83837182e-18 1.96746287e+02 6.82998571e+00 1.90052945e-20 7.96661890e-02
0.00236          6.14601180e+01 -4.85216758e-18 1.97062992e+02 5.46360580e+01 -4.87130734e-18 1.96983002e+02 6.82406003e+00 1.91397622e-20 7.99906822e-02
0.00238          6.12102347e+01 -4.88455362e-18 1.97305342e+02 5.43920385e+01 -4.90424929e-18 1.97225030e+02 6.81819618e+00 1.96956726e-20 8.03120322e-02
0.0024           6.09597971e+01 -4.91787137e-18 1.97552715e+02 5.41474051e+01 -4.93711274e-18 1.97472085e+02 6.81239202e+00 1.92413729e-20 8.06300801e-02
0.00242          6.07101902e+01 -4.95059200e-18 1.97805147e+02 5.39035437e+01 -4.96990888e-18 1.97724202e+02 6.80664649e+00 1.93168771e-20 8.09446007e-02
0.00244          6.04632420e+01 -4.98329501e-18 1.98062144e+02 5.36622876e+01 -5.00263483e-18 1.97980884e+02 6.80095442e+00 1.93398247e-20 8.12595323e-02
0.00246          6.02189579e+01 -5.01597222e-18 1.98323872e+02 5.34236382e+01 -5.03537708e-18 1.98242302e+02 6.79531966e+00 1.94048677e-20 8.15698549e-02
0.00248          5.99790514e+01 -5.04844599e-18 1.98589817e+02 5.31893078e+01 -5.06790186e-18 1.98507942e+02 6.78974360e+00 1.94558660e-20 8.18756865e-02
0.0025           5.97445529e+01 -5.08064638e-18 1.98858593e+02 5.29603275e+01 -5.10014109e-18 1.98776415e+02 6.78422545e+00 1.94947136e-20 8.21778567e-02
0.00252          5.95153131e+01 -5.11277035e-18 1.99129458e+02 5.27365488e+01 -5.13205201e-18 1.99046981e+02 6.77876435e+00 1.92816631e-20 8.24771544e-02
0.00254          5.92908675e+01 -5.14462734e-18 1.99402435e+02 5.25175068e+01 -5.16353200e-18 1.99319662e+02 6.77336068e+00 1.89046617e-20 8.27735371e-02
0.00256          5.90701877e+01 -5.17492190e-18 1.99675908e+02 5.23021744e+01 -5.19465820e-18 1.99592838e+02 6.76801331e+00 1.97362985e-20 8.30696368e-02
